# Data for ascii data initial temperature
# Only next line is parsed in format: [nx] because of keyword "POINTS:"
# POINTS: 1302
# Columns: depth (m), temperature (K)
depth temperature
0.0	440.0
42.0	440.7573251
142.0	442.5592771
242.0	444.3595347
342.0	446.1580979
442.0	447.9549664
542.0	449.7501401
642.0	451.5436189
742.0	453.3354027
842.0	455.1254913
942.0	456.9138846
1042.0	458.7005824
1142.0	460.4855847
1242.0	462.2688913
1342.0	464.0505021
1442.0	465.8304169
1542.0	467.6086356
1642.0	469.385158
1742.0	471.1599841
1842.0	472.9331137
1942.0	474.7045467
2042.0	476.4742828
2142.0	478.2423221
2242.0	480.0086644
2342.0	481.7733094
2442.0	483.5362572
2542.0	485.2975076
2642.0	487.0570603
2742.0	488.8149154
2842.0	490.5710727
2942.0	492.3255319
3042.0	494.0782931
3142.0	495.829356
3242.0	497.5787206
3342.0	499.3263867
3442.0	501.0723541
3542.0	502.8166228
3642.0	504.5591925
3742.0	506.3000633
3842.0	508.0392348
3942.0	509.7767071
4042.0	511.5124799
4142.0	513.2465531
4242.0	514.9789267
4342.0	516.7096004
4442.0	518.4385741
4542.0	520.1658477
4642.0	521.8914211
4742.0	523.6152941
4842.0	525.3374666
4942.0	527.0579385
5042.0	528.7767096
5142.0	530.4937798
5242.0	532.2091489
5342.0	533.9228169
5442.0	535.6347835
5542.0	537.3450487
5642.0	539.0536124
5742.0	540.7604743
5842.0	542.4656343
5942.0	544.1690924
6042.0	545.8708484
6142.0	547.5709021
6242.0	549.2692535
6342.0	550.9659023
6442.0	552.6608485
6542.0	554.3540919
6642.0	556.0456323
6742.0	557.7354697
6842.0	559.423604
6942.0	561.1100349
7042.0	562.7947623
7142.0	564.4777862
7242.0	566.1591063
7342.0	567.8387226
7442.0	569.5166349
7542.0	571.192843
7642.0	572.8673469
7742.0	574.5401464
7842.0	576.2112413
7942.0	577.8806316
8042.0	579.5483171
8142.0	581.2142977
8242.0	582.8785731
8342.0	584.5411434
8442.0	586.2020083
8542.0	587.8611678
8642.0	589.5186217
8742.0	591.1743698
8842.0	592.828412
8942.0	594.4807482
9042.0	596.1313783
9142.0	597.7803021
9242.0	599.4275194
9342.0	601.0730302
9442.0	602.7168344
9542.0	604.3589317
9642.0	605.999322
9742.0	607.6380053
9842.0	609.2749813
9942.0	610.91025
10042.0	612.5438112
10142.0	614.1756647
10242.0	615.8058105
10342.0	617.4342483
10442.0	619.0609782
10542.0	620.6859998
10642.0	622.3093132
10742.0	623.9309181
10842.0	625.5508144
10942.0	627.1690021
11042.0	628.7854808
11142.0	630.4002506
11242.0	632.0133113
11342.0	633.6246627
11442.0	635.2343048
11542.0	636.8422373
11642.0	638.4484601
11742.0	640.0529732
11842.0	641.6557763
11942.0	643.2568693
12042.0	644.8562522
12142.0	646.4539247
12242.0	648.0498868
12342.0	649.6441382
12442.0	651.2366789
12542.0	652.8275087
12642.0	654.4166275
12742.0	656.0040352
12842.0	657.5897315
12942.0	659.1737165
13042.0	660.7559899
13142.0	662.3365516
13242.0	663.9154014
13342.0	665.4925393
13442.0	667.0679651
13542.0	668.6416787
13642.0	670.2136799
13742.0	671.7839686
13842.0	673.3525447
13942.0	674.9194079
14042.0	676.4845583
14142.0	678.0479956
14242.0	679.6097197
14342.0	681.1697305
14442.0	682.7280279
14542.0	684.2846116
14642.0	685.8394816
14742.0	687.3926378
14842.0	688.9440799
14942.0	690.4938079
15042.0	692.0418217
15142.0	693.588121
15242.0	695.1327058
15342.0	696.6755759
15442.0	698.2167311
15542.0	699.7561714
15642.0	701.2938967
15742.0	702.8299067
15842.0	704.3642013
15942.0	705.8967804
16042.0	707.4276439
16142.0	708.9567917
16242.0	710.4842235
16342.0	712.0099393
16442.0	713.5339388
16542.0	715.0562221
16642.0	716.5767889
16742.0	718.0956392
16842.0	719.6127726
16942.0	721.1281893
17042.0	722.6418889
17142.0	724.1538714
17242.0	725.6641366
17342.0	727.1726844
17442.0	728.6795147
17542.0	730.1846273
17642.0	731.688022
17742.0	733.1896988
17842.0	734.6896575
17942.0	736.187898
18042.0	737.6844201
18142.0	739.1792237
18242.0	740.6723086
18342.0	742.1636748
18442.0	743.6533221
18542.0	745.1412503
18642.0	746.6274593
18742.0	748.111949
18842.0	749.5947192
18942.0	751.0757699
19042.0	752.5551007
19142.0	754.0327118
19200.0	754.3997843
19300.0	755.0326415
19400.0	755.6654654
19500.0	756.298256
19600.0	756.9310131
19700.0	757.5637369
19800.0	758.1964273
19900.0	758.8290844
20000.0	759.461708
20100.0	760.0942983
20200.0	760.7268553
20300.0	761.3593788
20400.0	761.991869
20500.0	762.6243258
20600.0	763.2567492
20700.0	763.8891393
20800.0	764.5214959
20900.0	765.1538192
21000.0	765.7861092
21100.0	766.4183657
21200.0	767.0505889
21300.0	767.6827786
21400.0	768.314935
21500.0	768.9470581
21600.0	769.5791477
21700.0	770.2112039
21800.0	770.8432268
21900.0	771.4752163
22000.0	772.1071724
22100.0	772.7390951
22200.0	773.3709845
22300.0	774.0028404
22400.0	774.634663
22500.0	775.2664522
22600.0	775.8982079
22700.0	776.5299303
22800.0	777.1616193
22900.0	777.793275
23000.0	778.4248972
23100.0	779.056486
23200.0	779.6880415
23300.0	780.3195635
23400.0	780.9510522
23500.0	781.5825075
23600.0	782.2139294
23700.0	782.8453178
23800.0	783.4766729
23900.0	784.1079946
24000.0	784.7392829
24100.0	785.3705378
24200.0	786.0017593
24300.0	786.6329474
24400.0	787.2641021
24500.0	787.8952234
24600.0	788.5263113
24700.0	789.1573658
24800.0	789.788387
24900.0	790.4193747
25000.0	791.050329
25100.0	791.6812499
25200.0	792.3121374
25300.0	792.9429914
25400.0	793.5738121
25500.0	794.2045994
25600.0	794.8353533
25700.0	795.4660738
25800.0	796.0967608
25900.0	796.7274145
26000.0	797.3580347
26100.0	797.9886216
26200.0	798.619175
26300.0	799.249695
26400.0	799.8801816
26500.0	800.5106348
26600.0	801.1410546
26700.0	801.771441
26800.0	802.4017939
26900.0	803.0321135
27000.0	803.6623996
27100.0	804.2926523
27200.0	804.9228716
27300.0	805.5530575
27400.0	806.18321
27500.0	806.8133291
27600.0	807.4434147
27700.0	808.0734669
27800.0	808.7034857
27900.0	809.3334711
28000.0	809.963423
28100.0	810.5933416
28200.0	811.2232267
28300.0	811.8530784
28400.0	812.4828967
28500.0	813.1126815
28600.0	813.7424329
28700.0	814.3721509
28800.0	815.0018355
28900.0	815.6314867
29000.0	816.2611044
29100.0	816.8906887
29200.0	817.5202395
29300.0	818.149757
29400.0	818.779241
29500.0	819.4086916
29600.0	820.0381087
29700.0	820.6674924
29800.0	821.2968427
29900.0	821.9261596
30000.0	822.555443
30100.0	823.184693
30200.0	823.8139096
30300.0	824.4430927
30400.0	825.0722424
30500.0	825.7013586
30600.0	826.3304415
30700.0	826.9594908
30800.0	827.5885068
30900.0	828.2174893
31000.0	828.8464384
31100.0	829.475354
31200.0	830.1042362
31300.0	830.7330849
31400.0	831.3619002
31500.0	831.9906821
31600.0	832.6194305
31700.0	833.2481455
31800.0	833.8768271
31900.0	834.5054751
32000.0	835.1340898
32100.0	835.762671
32200.0	836.3912188
32300.0	837.0197331
32400.0	837.6482139
32500.0	838.2766614
32600.0	838.9050753
32700.0	839.5334559
32800.0	840.1618029
32900.0	840.7901165
33000.0	841.4183967
33100.0	842.0466434
33200.0	842.6748567
33300.0	843.3030365
33400.0	843.9311829
33500.0	844.5592958
33600.0	845.1873752
33700.0	845.8154212
33800.0	846.4434338
33900.0	847.0714129
34000.0	847.6993585
34100.0	848.3272707
34200.0	848.9551494
34300.0	849.5829947
34400.0	850.2108065
34500.0	850.8385848
34600.0	851.4663297
34700.0	852.0940411
34800.0	852.721719
34900.0	853.3493635
35000.0	853.9769746
35100.0	854.6045521
35200.0	855.2320962
35300.0	855.8596069
35400.0	856.4870841
35500.0	857.1145278
35600.0	857.741938
35700.0	858.3693148
35800.0	858.9966581
35900.0	859.6239679
36000.0	860.2512443
36100.0	860.8784872
36200.0	861.5056966
36300.0	862.1328726
36400.0	862.760015
36500.0	863.3871241
36600.0	864.0141996
36700.0	864.6412417
36800.0	865.2682503
36900.0	865.8952254
37000.0	866.522167
37100.0	867.1490752
37200.0	867.7759499
37300.0	868.4027911
37400.0	869.0295988
37500.0	869.6563731
37600.0	870.2831139
37700.0	870.9098212
37800.0	871.536495
37900.0	872.1631353
38000.0	872.7897422
38100.0	873.4163156
38200.0	874.0428555
38300.0	874.6693619
38400.0	875.2958348
38500.0	875.9222742
38600.0	876.5486802
38700.0	877.1750527
38800.0	877.8013917
38900.0	878.4276972
39000.0	879.0539692
39100.0	879.6802077
39200.0	880.3064127
39300.0	880.9325843
39400.0	881.5587223
39500.0	882.1848269
39600.0	882.810898
39700.0	883.4369356
39800.0	884.0629396
39900.0	884.6889102
40000.0	885.3148473
40100.0	885.940751
40200.0	886.5666211
40300.0	887.1924577
40400.0	887.8182608
40500.0	888.4440304
40600.0	889.0697666
40700.0	889.6954692
40800.0	890.3211383
40900.0	890.946774
41000.0	891.5723761
41100.0	892.1979447
41200.0	892.8234798
41300.0	893.4489815
41400.0	894.0744496
41500.0	894.6998842
41600.0	895.3252854
41700.0	895.950653
41800.0	896.5759871
41900.0	897.2012877
42000.0	897.8265548
42100.0	898.4517884
42200.0	899.0769885
42300.0	899.702155
42400.0	900.3272881
42500.0	900.9523877
42600.0	901.5774537
42700.0	902.2024863
42800.0	902.8274853
42900.0	903.4524508
43000.0	904.0773828
43100.0	904.7022813
43200.0	905.3271463
43300.0	905.9519778
43400.0	906.5767757
43500.0	907.2015401
43600.0	907.8262711
43700.0	908.4509685
43800.0	909.0756324
43900.0	909.7002627
44000.0	910.3248596
44100.0	910.9494229
44200.0	911.5739527
44300.0	912.198449
44400.0	912.8229118
44500.0	913.447341
44600.0	914.0717367
44700.0	914.696099
44800.0	915.3204276
44900.0	915.9447228
45000.0	916.5689844
45100.0	917.1932125
45200.0	917.8174071
45300.0	918.4415682
45400.0	919.0656957
45500.0	919.6897897
45600.0	920.3138502
45700.0	920.9378771
45800.0	921.5618705
45900.0	922.1858304
46000.0	922.8097567
46100.0	923.4336496
46200.0	924.0575088
46300.0	924.6813346
46400.0	925.3051268
46500.0	925.9288855
46600.0	926.5526107
46700.0	927.1763023
46800.0	927.7999604
46900.0	928.4235849
47000.0	929.0471759
47100.0	929.6707334
47200.0	930.2942573
47300.0	930.9177477
47400.0	931.5412045
47500.0	932.1646279
47600.0	932.7880176
47700.0	933.4113739
47800.0	934.0346966
47900.0	934.6579857
48000.0	935.2812413
48100.0	935.9044634
48200.0	936.5276519
48300.0	937.1508068
48400.0	937.7739283
48500.0	938.3970161
48600.0	939.0200705
48700.0	939.6430912
48800.0	940.2660785
48900.0	940.8890322
49000.0	941.5119523
49100.0	942.1348389
49200.0	942.7576919
49300.0	943.3805114
49400.0	944.0032973
49500.0	944.6260497
49600.0	945.2487685
49700.0	945.8714538
49800.0	946.4941055
49900.0	947.1167236
50000.0	947.7393082
50100.0	948.3618593
50200.0	948.9843768
50300.0	949.6068607
50400.0	950.2293111
50500.0	950.8517279
50600.0	951.4741111
50700.0	952.0964608
50800.0	952.718777
50900.0	953.3410595
51000.0	953.9633086
51100.0	954.585524
51200.0	955.2077059
51300.0	955.8298542
51400.0	956.451969
51500.0	957.0740501
51600.0	957.6960978
51700.0	958.3181118
51800.0	958.9400923
51900.0	959.5620392
52000.0	960.1839526
52100.0	960.8058324
52200.0	961.4276786
52300.0	962.0494912
52400.0	962.6712703
52500.0	963.2930158
52600.0	963.9147277
52700.0	964.5364061
52800.0	965.1580508
52900.0	965.779662
53000.0	966.4012397
53100.0	967.0227837
53200.0	967.6442942
53300.0	968.2657711
53400.0	968.8872144
53500.0	969.5086242
53600.0	970.1300004
53700.0	970.751343
53800.0	971.372652
53900.0	971.9939274
54000.0	972.6151692
54100.0	973.2363775
54200.0	973.8575522
54300.0	974.4786933
54400.0	975.0998008
54500.0	975.7208747
54600.0	976.3419151
54700.0	976.9629219
54800.0	977.583895
54900.0	978.2048346
55000.0	978.8257406
55100.0	979.446613
55200.0	980.0674519
55300.0	980.6882571
55400.0	981.3090287
55500.0	981.9297668
55600.0	982.5504713
55700.0	983.1711421
55800.0	983.7917794
55900.0	984.4123831
56000.0	985.0329532
56100.0	985.6534897
56200.0	986.2739926
56300.0	986.8944619
56400.0	987.5148976
56500.0	988.1352997
56600.0	988.7556682
56700.0	989.3760032
56800.0	989.9963045
56900.0	990.6165722
57000.0	991.2368063
57100.0	991.8570068
57200.0	992.4771738
57300.0	993.0973071
57400.0	993.7174068
57500.0	994.3374729
57600.0	994.9575054
57700.0	995.5775043
57800.0	996.1974696
57900.0	996.8174013
58000.0	997.4372994
58100.0	998.0571638
58200.0	998.6769947
58300.0	999.296792
58400.0	999.9165556
58500.0	1000.536286
58600.0	1001.155982
58700.0	1001.775645
58800.0	1002.395274
58900.0	1003.01487
59000.0	1003.634432
59100.0	1004.25396
59200.0	1004.873455
59300.0	1005.492916
59400.0	1006.112343
59500.0	1006.731737
59600.0	1007.351098
59700.0	1007.970424
59800.0	1008.589717
59900.0	1009.208977
60000.0	1009.828203
60100.0	1010.447395
60200.0	1011.066553
60300.0	1011.685678
60400.0	1012.30477
60500.0	1012.923827
60600.0	1013.542852
60700.0	1014.161842
60800.0	1014.780799
60900.0	1015.399722
61000.0	1016.018612
61100.0	1016.637468
61200.0	1017.25629
61300.0	1017.875079
61400.0	1018.493834
61500.0	1019.112555
61600.0	1019.731243
61700.0	1020.349897
61800.0	1020.968518
61900.0	1021.587105
62000.0	1022.205658
62100.0	1022.824178
62200.0	1023.442664
62300.0	1024.061116
62400.0	1024.679535
62500.0	1025.29792
62600.0	1025.916272
62700.0	1026.534589
62800.0	1027.152874
62900.0	1027.771124
63000.0	1028.389341
63100.0	1029.007524
63200.0	1029.625674
63300.0	1030.24379
63400.0	1030.861872
63500.0	1031.479921
63600.0	1032.097936
63700.0	1032.715918
63800.0	1033.333866
63900.0	1033.95178
64000.0	1034.56966
64100.0	1035.187507
64200.0	1035.80532
64300.0	1036.4231
64400.0	1037.040846
64500.0	1037.658558
64600.0	1038.276237
64700.0	1038.893882
64800.0	1039.511493
64900.0	1040.129071
65000.0	1040.746615
65100.0	1041.364125
65200.0	1041.981602
65300.0	1042.599045
65400.0	1043.216455
65500.0	1043.83383
65600.0	1044.451172
65700.0	1045.068481
65800.0	1045.685756
65900.0	1046.302997
66000.0	1046.920204
66100.0	1047.537378
66200.0	1048.154518
66300.0	1048.771625
66400.0	1049.388698
66500.0	1050.005737
66600.0	1050.622742
66700.0	1051.239714
66800.0	1051.856652
66900.0	1052.473557
67000.0	1053.090428
67100.0	1053.707265
67200.0	1054.324069
67300.0	1054.940839
67400.0	1055.557575
67500.0	1056.174277
67600.0	1056.790946
67700.0	1057.407581
67800.0	1058.024183
67900.0	1058.640751
68000.0	1059.257285
68100.0	1059.873785
68200.0	1060.490252
68300.0	1061.106686
68400.0	1061.723085
68500.0	1062.339451
68600.0	1062.955783
68700.0	1063.572082
68800.0	1064.188346
68900.0	1064.804577
69000.0	1065.420775
69100.0	1066.036939
69200.0	1066.653069
69300.0	1067.269165
69400.0	1067.885228
69500.0	1068.501257
69600.0	1069.117252
69700.0	1069.733214
69800.0	1070.349142
69900.0	1070.965036
70000.0	1071.580897
70100.0	1072.196724
70200.0	1072.812517
70300.0	1073.428277
70400.0	1074.044003
70500.0	1074.659695
70600.0	1075.275354
70700.0	1075.890978
70800.0	1076.50657
70900.0	1077.122127
71000.0	1077.737651
71100.0	1078.353141
71200.0	1078.968597
71300.0	1079.58402
71400.0	1080.199409
71500.0	1080.814764
71600.0	1081.430086
71700.0	1082.045374
71800.0	1082.660628
71900.0	1083.275849
72000.0	1083.891035
72100.0	1084.506189
72200.0	1085.121308
72300.0	1085.736394
72400.0	1086.351446
72500.0	1086.966464
72600.0	1087.581449
72700.0	1088.1964
72800.0	1088.811317
72900.0	1089.4262
73000.0	1090.04105
73100.0	1090.655866
73200.0	1091.270649
73300.0	1091.885398
73400.0	1092.500113
73500.0	1093.114794
73600.0	1093.729442
73700.0	1094.344055
73800.0	1094.958636
73900.0	1095.573182
74000.0	1096.187695
74100.0	1096.802174
74200.0	1097.416619
74300.0	1098.031031
74400.0	1098.645409
74500.0	1099.259753
74600.0	1099.874063
74700.0	1100.48834
74800.0	1101.102583
74900.0	1101.716793
75000.0	1102.330968
75100.0	1102.94511
75200.0	1103.559218
75300.0	1104.173293
75400.0	1104.787334
75500.0	1105.401341
75600.0	1106.015314
75700.0	1106.629254
75800.0	1107.24316
75900.0	1107.857032
76000.0	1108.47087
76100.0	1109.084675
76200.0	1109.698446
76300.0	1110.312183
76400.0	1110.925887
76500.0	1111.539556
76600.0	1112.153192
76700.0	1112.766795
76800.0	1113.380363
76900.0	1113.993898
77000.0	1114.6074
77100.0	1115.220867
77200.0	1115.834301
77300.0	1116.447701
77400.0	1117.061067
77500.0	1117.674399
77600.0	1118.287698
77700.0	1118.900963
77800.0	1119.514195
77900.0	1120.127392
78000.0	1120.740556
78100.0	1121.353686
78200.0	1121.966782
78300.0	1122.579845
78400.0	1123.192874
78500.0	1123.805869
78600.0	1124.41883
78700.0	1125.031758
78800.0	1125.644652
78900.0	1126.257512
79000.0	1126.870339
79100.0	1127.483131
79200.0	1128.09589
79300.0	1128.708616
79400.0	1129.321307
79500.0	1129.933965
79600.0	1130.546589
79700.0	1131.159179
79800.0	1131.771735
79900.0	1132.384258
80000.0	1132.996747
80100.0	1133.609202
80200.0	1134.221624
80300.0	1134.834012
80400.0	1135.446365
80500.0	1136.058686
80600.0	1136.670972
80700.0	1137.283225
80800.0	1137.895444
80900.0	1138.507629
81000.0	1139.119781
81100.0	1139.731898
81200.0	1140.343982
81300.0	1140.956032
81400.0	1141.568049
81500.0	1142.180031
81600.0	1142.79198
81700.0	1143.403895
81800.0	1144.015777
81900.0	1144.627624
82000.0	1145.239438
82100.0	1145.851218
82200.0	1146.462965
82300.0	1147.074677
82400.0	1147.686356
82500.0	1148.298001
82600.0	1148.909612
82700.0	1149.52119
82800.0	1150.132734
82900.0	1150.744244
83000.0	1151.35572
83100.0	1151.967162
83200.0	1152.578571
83300.0	1153.189946
83400.0	1153.801287
83500.0	1154.412594
83600.0	1155.023868
83700.0	1155.635108
83800.0	1156.246314
83900.0	1156.857486
84000.0	1157.468624
84100.0	1158.079729
84200.0	1158.6908
84300.0	1159.301837
84400.0	1159.91284
84500.0	1160.52381
84600.0	1161.134746
84700.0	1161.745648
84800.0	1162.356516
84900.0	1162.96735
85000.0	1163.578151
85100.0	1164.188918
85200.0	1164.799651
85300.0	1165.41035
85400.0	1166.021016
85500.0	1166.631648
85600.0	1167.242246
85700.0	1167.85281
85800.0	1168.46334
85900.0	1169.073837
86000.0	1169.6843
86100.0	1170.294729
86200.0	1170.905124
86300.0	1171.515485
86400.0	1172.125813
86500.0	1172.736107
86600.0	1173.346367
86700.0	1173.956593
86800.0	1174.566786
86900.0	1175.176944
87000.0	1175.787069
87100.0	1176.39716
87200.0	1177.007218
87300.0	1177.617241
87400.0	1178.227231
87500.0	1178.837187
87600.0	1179.447109
87700.0	1180.056997
87800.0	1180.666852
87900.0	1181.276672
88000.0	1181.886459
88100.0	1182.496212
88200.0	1183.105932
88300.0	1183.715617
88400.0	1184.325269
88500.0	1184.934887
88600.0	1185.544471
88700.0	1186.154021
88800.0	1186.763537
88900.0	1187.37302
89000.0	1187.982469
89100.0	1188.591884
89200.0	1189.201265
89300.0	1189.810612
89400.0	1190.419926
89500.0	1191.029206
89600.0	1191.638452
89700.0	1192.247664
89800.0	1192.856842
89900.0	1193.465987
90000.0	1194.075097
90100.0	1194.684174
90200.0	1195.293217
90300.0	1195.902227
90400.0	1196.511202
90500.0	1197.120144
90600.0	1197.729052
90700.0	1198.337925
90800.0	1198.946766
90900.0	1199.555572
91000.0	1200.164344
91100.0	1200.773083
91200.0	1201.381788
91300.0	1201.990459
91400.0	1202.599096
91500.0	1203.2077
91600.0	1203.816269
91700.0	1204.424805
91800.0	1205.033307
91900.0	1205.641775
92000.0	1206.250209
92100.0	1206.85861
92200.0	1207.466976
92300.0	1208.075309
92400.0	1208.683608
92500.0	1209.291873
92600.0	1209.900104
92700.0	1210.508302
92800.0	1211.116465
92900.0	1211.724595
93000.0	1212.332691
93100.0	1212.940753
93200.0	1213.548781
93300.0	1214.156776
93400.0	1214.764736
93500.0	1215.372663
93600.0	1215.980556
93700.0	1216.588415
93800.0	1217.19624
93900.0	1217.804031
94000.0	1218.411789
94100.0	1219.019512
94200.0	1219.627202
94300.0	1220.234858
94400.0	1220.84248
94500.0	1221.450069
94600.0	1222.057623
94700.0	1222.665144
94800.0	1223.272631
94900.0	1223.880083
95000.0	1224.487502
95100.0	1225.094888
95200.0	1225.702239
95300.0	1226.309557
95400.0	1226.91684
95500.0	1227.52409
95600.0	1228.131306
95700.0	1228.738488
95800.0	1229.345636
95900.0	1229.952751
96000.0	1230.559831
96100.0	1231.166878
96200.0	1231.773891
96300.0	1232.38087
96400.0	1232.987815
96500.0	1233.594726
96600.0	1234.201603
96700.0	1234.808447
96800.0	1235.415256
96900.0	1236.022032
97000.0	1236.628774
97100.0	1237.235482
97200.0	1237.842156
97300.0	1238.448797
97400.0	1239.055403
97500.0	1239.661976
97600.0	1240.268514
97700.0	1240.875019
97800.0	1241.48149
97900.0	1242.087927
98000.0	1242.694331
98100.0	1243.3007
98200.0	1243.907035
98300.0	1244.513337
98400.0	1245.119605
98500.0	1245.725839
98600.0	1246.332039
98700.0	1246.938205
98800.0	1247.544337
98900.0	1248.150436
99000.0	1248.7565
99100.0	1249.362531
99200.0	1249.968527
99300.0	1250.57449
99400.0	1251.180419
99500.0	1251.786314
99600.0	1252.392176
99700.0	1252.998003
99800.0	1253.603796
99900.0	1254.209556
100000.0	1254.815282
